Data from RamanShift__3__17-37-24-517.txt Node

-1.5	15.97
4.9	249.94
11.2	317.02
17.5	172.68
23.9	0
30.2	0
36.5	0
42.8	0
49.1	0
55.4	0
61.7	0
68	0.5
74.3	6.47
80.6	5.01
86.9	3.97
93.2	3.41
99.4	0.46
105.7	4.03
111.9	2.27
118.2	0.59
124.4	5.15
130.7	0
136.9	3.75
143.2	0
149.4	0
155.6	0
161.8	0
168	0
174.2	0
180.4	0
186.6	0
192.8	0
199	0
205.2	0
211.4	0
217.5	0
223.7	0
229.8	0
236	0
242.1	0
248.3	0
254.4	0
260.6	0
266.7	0
272.8	0
278.9	574.18
285	961.61
291.2	1190.31
297.3	1234.43
303.4	1253.45
309.5	1250.19
315.5	1267.17
321.6	1240.22
327.7	1213.26
333.8	1191.67
339.8	1167.39
345.9	1164.34
352	1180.76
358	1203.57
364.1	1211.39
370.1	1214.45
376.2	1235.56
382.2	1211.16
388.2	1177.78
394.2	1159.35
400.3	1138.5
406.3	1117.6
412.3	1106.96
418.3	1088.7
424.3	1091.82
430.3	1090.61
436.3	1025.34
442.3	964.86
448.2	835.61
454.2	743.28
460.2	599.09
466.1	409.88
472.1	196.4
478.1	67.22
484	122.98
490	430.46
495.9	712.69
501.8	812.95
507.8	685.49
513.7	364.31
519.6	0
525.5	0
531.4	0
537.3	0
543.3	0
549.1	0
555	0
560.9	0
566.8	0
572.7	0
578.6	0
584.4	17.43
590.3	108.13
596.2	225.19
602	372.31
607.9	499.8
613.7	550.64
619.5	500.1
625.4	373.01
631.2	210.65
637	66.97
642.9	0
648.7	0
654.5	0
660.3	0
666.1	0
671.9	0
677.7	0
683.5	0
689.3	0
695	0
700.8	0
706.6	0
712.4	0
718.1	0
723.9	0
729.6	3.56
735.4	25.03
741.1	26.24
746.9	48.61
752.6	62.03
758.3	91.38
764	117.52
769.8	180.45
775.5	280.66
781.2	402.14
786.9	538.73
792.6	673.43
798.3	747.84
804	800.76
809.7	809.09
815.4	808.24
821	796.23
826.7	774.63
832.4	732.02
838	677.35
843.7	617.77
849.4	542.81
855	440.18
860.7	350.01
866.3	251.72
871.9	174.23
877.6	90.38
883.2	49.02
888.8	20.71
894.4	9.77
900.1	4.29
905.7	0
911.3	3.21
916.9	0
922.5	0
928.1	0
933.7	0
939.2	0
944.8	0
950.4	0
956	0
961.5	0
967.1	0
972.7	3.61
978.2	0
983.8	0
989.3	8.79
994.8	0
1000.4	0.31
1005.9	10.64
1011.4	30.67
1017	59.46
1022.5	86.4
1028	118.23
1033.5	162.24
1039	195.26
1044.5	216.45
1050	252.93
1055.5	254.71
1061	254.33
1066.5	244.97
1071.9	244.08
1077.4	230.07
1082.9	209.06
1088.4	178.04
1093.8	159.22
1099.3	121.3
1104.7	90.73
1110.2	55.23
1115.6	32.95
1121.1	9.42
1126.5	1.22
1131.9	1.85
1137.4	19.95
1142.8	34.49
1148.2	50.88
1153.6	72.55
1159	74.71
1164.4	87.99
1169.8	105.28
1175.2	111.93
1180.6	124.32
1186	129.9
1191.4	143.13
1196.8	149.92
1202.2	148.29
1207.5	146.67
1212.9	145.49
1218.3	131.38
1223.6	126.02
1229	118.87
1234.3	99.97
1239.7	99.84
1245	81.88
1250.4	77.02
1255.7	74.04
1261	52.8
1266.4	39.03
1271.7	24.88
1277	14.82
1282.3	4.44
1287.6	1.04
1292.9	1.33
1298.2	2.02
1303.5	0.73
1308.8	7.72
1314.1	3.47
1319.4	6.54
1324.7	9.41
1330	0
1335.2	14.18
1340.5	0
1345.8	1.85
1351	6.66
1356.3	0.34
1361.6	2.49
1366.8	0.43
1372	10.15
1377.3	0
1382.5	4.54
1387.8	0
1393	1.25
1398.2	12.29
1403.4	0.69
1408.6	0
1413.9	8.17
1419.1	0
1424.3	1.11
1429.5	0
1434.7	4.47
1439.9	0.64
1445.1	10.49
1450.2	0
1455.4	0.17
1460.6	4.58
1465.8	0.45
1470.9	0.55
1476.1	5.17
1481.3	11.16
1486.4	8.99
1491.6	2.2
1496.7	1.62
1501.9	2.1
1507	0.9
1512.1	8.55
1517.3	4.15
1522.4	0
1527.5	1.86
1532.7	4.64
1537.8	1.09
1542.9	0
1548	9.07
1553.1	7.84
1558.2	15.22
1563.3	8.4
1568.4	0
1573.5	6.93
1578.6	0.02
1583.6	0.2
1588.7	0.08
1593.8	1.53
1598.9	8.36
1603.9	3.35
1609	11.81
1614.1	0.79
1619.1	13.37
1624.2	8.84
1629.2	10.69
1634.3	5.12
1639.3	4.74
1644.3	0
1649.4	1.7
1654.4	10.96
1659.4	4.73
1664.4	5.34
1669.5	4.81
1674.5	0
1679.5	0.02
1684.5	7.91
1689.5	14.25
1694.5	7.81
1699.5	1.75
1704.5	5.19
1709.5	0.41
1714.4	0.26
1719.4	4.36
1724.4	0
1729.4	0
1734.3	2.88
1739.3	0
1744.3	1.17
1749.2	2.7
1754.2	5.18
1759.1	7.03
1764.1	11.83
1769	3.32
1773.9	0
1778.9	9.89
1783.8	15.89
1788.7	8.04
1793.6	0.91
1798.6	14.82
1803.5	4.78
1808.4	7.62
1813.3	0
1818.2	0.8
1823.1	3.41
1828	2.86
1832.9	0.99
1837.8	5.87
1842.7	15.64
1847.5	0.29
1852.4	0.82
1857.3	4.1
1862.2	1.64
1867	5.49
1871.9	8.93
1876.8	4.92
1881.6	3.03
1886.5	0.91
1891.3	14.07
1896.2	3.21
1901	13.58
1905.8	2.25
1910.7	0.34
1915.5	0.57
1920.3	6.96
1925.2	9.86
1930	2.38
1934.8	0
1939.6	0.56
1944.4	5.05
1949.2	0
1954	0.51
1958.8	1.12
1963.6	0
1968.4	2.54
1973.2	0
1978	2.84
1982.8	0
1987.5	0
1992.3	0
1997.1	1.86
2001.9	0
2006.6	0.55
2011.4	6.41
2016.1	0
2020.9	9.42
2025.6	4.47
2030.4	1.28
2035.1	10.68
2039.9	1.98
2044.6	22.5
2049.3	14.72
2054	0
2058.8	13.46
2063.5	13.74
2068.2	8.55
2072.9	0.79
2077.6	0
2082.3	2.3
2087	5.14
2091.7	0
2096.4	1.51
2101.1	0
2105.8	9.39
2110.5	9.44
2115.2	0.77
2119.9	13.47
2124.5	12.81
2129.2	9.26
2133.9	10.94
2138.5	3.09
2143.2	8.94
2147.9	0.85
2152.5	9.06
2157.2	9.09
2161.8	8.46
2166.5	10.21
2171.1	0.56
2175.7	8.22
2180.4	12.07
2185	0
2189.6	0.62
2194.3	1.05
2198.9	4.25
2203.5	6.97
2208.1	0
2212.7	0.53
2217.3	2.96
2221.9	0
2226.5	0.22
2231.1	0
2235.7	2.69
2240.3	0
2244.9	1.69
2249.5	0
2254.1	0.66
2258.6	1.94
2263.2	6.08
2267.8	10.07
2272.3	9.5
2276.9	6.78
2281.5	0
2286	10.39
2290.6	0
2295.1	1.27
2299.7	0
2304.2	0.36
2308.7	0.53
2313.3	1.18
2317.8	0
2322.3	8.33
2326.9	5.69
2331.4	0.65
2335.9	12.02
2340.4	5.87
2344.9	0
2349.5	6.79
2354	0.44
2358.5	5.66
2363	0
2367.5	0.06
2372	6.68
2376.4	0
2380.9	6.41
2385.4	1.55
2389.9	9.7
2394.4	6.45
2398.8	4.79
2403.3	2
2407.8	0.98
2412.2	11.25
2416.7	9.85
2421.2	4.75
2425.6	0.63
2430.1	12.31
2434.5	14.71
2439	11.58
2443.4	7.95
2447.8	9.15
2452.3	0.57
2456.7	8.46
2461.1	10.56
2465.6	10.99
2470	6.37
2474.4	5.85
2478.8	7
2483.2	0
2487.6	7.07
2492	7.54
2496.4	0
2500.8	0.8
2505.2	0.56
2509.6	0
2514	6.37
2518.4	0
2522.8	11.18
2527.2	0
2531.6	0.62
2535.9	0.37
2540.3	4.8
2544.7	4.91
2549	1.09
2553.4	0.96
2557.8	3.39
2562.1	2.39
2566.5	0.99
2570.8	14.76
2575.2	0
2579.5	0.77
2583.8	8.28
2588.2	0
2592.5	0.5
2596.8	0
2601.2	10.37
2605.5	0.1
2609.8	2.53
2614.1	0.57
2618.4	4.34
2622.8	3.02
2627.1	0.2
2631.4	4.03
2635.7	4.56
2640	3.55
2644.3	0
2648.6	0.02
2652.8	7.37
2657.1	13.57
2661.4	5.47
2665.7	9.24
2670	0
2674.3	0.26
2678.5	9.97
2682.8	1.91
2687.1	6.44
2691.3	0
2695.6	0.64
2699.8	0.75
2704.1	2.44
2708.3	4.23
2712.6	6.4
2716.8	1.34
2721.1	8.17
2725.3	10.85
2729.5	5.4
2733.8	0.34
2738	8.12
2742.2	6.69
2746.5	0.98
2750.7	0.59
2754.9	6.38
2759.1	7.05
2763.3	0.58
2767.5	9.08
2771.7	9.34
2775.9	5.29
2780.1	2.86
2784.3	0.57
2788.5	6.39
2792.7	8.94
2796.9	0
2801.1	12.85
2805.3	4.43
2809.4	0.98
2813.6	15.37
2817.8	2.99
2822	6.5
2826.1	0
2830.3	0.76
2834.5	2.46
2838.6	9.04
2842.8	18.5
2846.9	2.94
2851.1	12.06
2855.2	0.9
2859.4	0
2863.5	14.31
2867.6	0
2871.8	0.04
2875.9	6.39
2880	0
2884.2	8.14
2888.3	8.51
2892.4	0.79
2896.5	11.79
2900.6	1.9
2904.7	13.52
2908.8	7.41
2912.9	0
2917.1	5.61
2921.1	4.18
2925.2	0.18
2929.3	6.85
2933.4	6.64
2937.5	2.2
2941.6	0.93
2945.7	5.28
2949.8	3.88
2953.8	1
2957.9	11.33
2962	10.85
2966.1	7.5
2970.1	0
2974.2	10.6
2978.2	2.85
2982.3	0.47
2986.3	1.08
2990.4	7.07
2994.4	0
2998.5	0.91
3002.5	1.61
3006.6	0
3010.6	0
3014.6	0
3018.7	1.8
3022.7	6.67
3026.7	0.26
3030.7	0.27
3034.8	10.28
3038.8	11.31
3042.8	1.36
3046.8	1
3050.8	1.68
3054.8	1.65
3058.8	6.34
3062.8	0
3066.8	0.42
3070.8	5.88
3074.8	2.47
3078.8	2.23
3082.8	1.76
3086.8	3.45
3090.7	3.23
3094.7	0
3098.7	4.83
3102.7	5.03
3106.6	0
3110.6	0.86
3114.6	1.98
3118.5	6.23
3122.5	0
3126.4	0.74
3130.4	7.17
3134.3	1.15
3138.3	0
3142.2	1.66
3146.2	0
3150.1	0.59
3154	0
3158	0
3161.9	0
3165.8	0
3169.8	0.67
3173.7	6.36
3177.6	0
3181.5	0.49
3185.4	3.29
3189.4	0.47
3193.3	0
3197.2	0
3201.1	0.8
3205	0.51
3208.9	0
3212.8	3.67
3216.7	5.89
3220.5	0.76
3224.4	5.96
3228.3	6.64
3232.2	0
3236.1	0.38
3240	1.67
3243.8	2.59
3247.7	3.75
3251.6	9.04
3255.4	2.41
3259.3	4.11
3263.2	0
3267	0.31
3270.9	0
3274.7	2.27
3278.6	13.69
3282.4	9.98
3286.3	7.21
3290.1	8.46
3293.9	3.22
3297.8	0.47
3301.6	0.01
3305.4	7.03
3309.3	1.9
3313.1	7.66
3316.9	7.48
3320.7	4.01
3324.6	2.48
3328.4	0.42
3332.2	5.16
3336	3.82
3339.8	13.81
3343.6	0.98
3347.4	20.05
3351.2	9.36
3355	13.7
3358.8	7.67
3362.6	0
3366.4	9.63
3370.2	4.75
3374	9.53
3377.7	6.36
3381.5	4.88
3385.3	0
3389.1	0.86
3392.8	0
3396.6	1.13
3400.4	0.4
3404.1	10.65
3407.9	0
3411.7	0.19
3415.4	0
3419.2	0
3422.9	0
3426.7	0.94
3430.4	6.75
3434.2	0
3437.9	3.72
3441.6	0
3445.4	0.58
3449.1	0
3452.8	2.96
3456.6	0
3460.3	0.48
3464	0
3467.7	0
3471.4	0
3475.2	0.97
3478.9	4.99
3482.6	1.78
3486.3	0.87
3490	2.2
3493.7	1.26
3497.4	2.39
3501.1	1.02
3504.8	4.74
3508.5	0
3512.2	1.97
3515.9	2.51
3519.5	0
3523.2	6.05
3526.9	0
3530.6	0.85
3534.3	0
3537.9	3.7
3541.6	7.52
3545.3	0
3548.9	0.52
3552.6	0
3556.3	0.47
3559.9	0.49
3563.6	3.9
3567.2	4.11
3570.9	4.23
3574.5	0
3578.2	0.7
3581.8	0
3585.4	0
3589.1	5.06
3592.7	2.59
3596.3	9.71
3600	0
3603.6	0.04
3607.2	0
3610.9	2.37
3614.5	0
3618.1	2.89
3621.7	1.09
3625.3	0
3628.9	5.09
3632.5	4.6
3636.1	2.96
3639.7	8
3643.3	0
3646.9	0.72
3650.5	5.56
3654.1	0
3657.7	0.2
3661.3	8.65
3664.9	5.48
3668.5	4.81
3672.1	0.35
3675.6	5.81
3679.2	11.48
3682.8	9.89
3686.4	15.53
3689.9	17.21
3693.5	12.82
3697.1	6.74
3700.6	3.95
3704.2	0.38
3707.7	6.17
3711.3	5.72
3714.9	7.52
3718.4	2.67
3722	2.84
3725.5	0
3729	0
3732.6	0
3736.1	0
3739.7	0
3743.2	0
3746.7	0
3750.3	0
3753.8	0
3757.3	0
3760.8	0
3764.3	0
3767.9	0
3771.4	0
3774.9	0
3778.4	0
3781.9	0
3785.4	1.29
3788.9	0
3792.4	0.28
3795.9	6.54
3799.4	3.68
3802.9	6.21
3806.4	2.45
3809.9	9.18
3813.4	0
3816.9	0.27
3820.3	1.38
3823.8	2.05
3827.3	2.91
3830.8	6.15
3834.2	0.05
3837.7	0.4
3841.2	6.42
3844.6	3.08
3848.1	0.86
3851.6	7.57
3855	0
3858.5	1.8
3861.9	2.76
3865.4	2.27
3868.8	0
3872.3	0.48
3875.7	8.06
3879.2	0.45
3882.6	14.02
3886.1	17.54
3889.5	2.97
3892.9	0.61
3896.4	8.32
3899.8	9.29
3903.2	0.42
3906.6	0.71
3910.1	5.44
3913.5	0
3916.9	9.26
3920.3	1.74
3923.7	0
3927.1	0.02
3930.5	3.56
3933.9	5.78
3937.4	3.76
3940.8	0
3944.2	0.59
3947.6	8.66
3950.9	3.5
3954.3	5.38
3957.7	3.91
3961.1	0.81
3964.5	0.44
3967.9	10.65
3971.3	7.75
3974.7	0
3978	0.19
3981.4	5.25
3984.8	4.41
3988.1	0
3991.5	0.51
3994.9	0.9
3998.2	0.53
4001.6	6.95
4005	1.79
4008.3	6.09
4011.7	2.02
4015	0.57
4018.4	11.72
4021.7	0
4025.1	0.44
4028.4	3.74
4031.8	1.68
4035.1	0.18
4038.4	6.96
4041.8	5.92
4045.1	6.45
4048.4	1.18
4051.8	0.65
4055.1	0.7
4058.4	4.5
4061.7	2.07
4065.1	0
4068.4	0.71
4071.7	4.17
4075	5.32
4078.3	1.45
4081.6	6.22
4084.9	1.61
4088.2	0.59
4091.5	3.59
4094.8	0
4098.1	5.94
4101.4	0.32
4104.7	3.7
4108	0
4111.3	2.79
4114.6	1.36
4117.9	0.92
4121.2	8.13
4124.4	1.81
4127.7	3.81
4131	0
4134.3	6.7
4137.5	5.62
4140.8	0
4144.1	0.55
4147.3	1.32
4150.6	0
4153.9	0.26
4157.1	4.62
4160.4	0
4163.6	0.57
4166.9	0
4170.1	0
4173.4	0
4176.6	6.34
4179.9	1.76
4183.1	5.64
4186.4	0
4189.6	0.19
4192.8	3.55
4196.1	5.79
4199.3	1.98
4202.5	5.23
4205.8	8.39
4209	12.77
4212.2	5.9
4215.4	0.8
4218.7	6.65
4221.9	6.48
4225.1	7.95
4228.3	0.12
4231.5	10.34
4234.7	8.36
4237.9	2.06
4241.1	2.12
4244.3	0.8
4247.5	2.25
4250.7	6.1
4253.9	0.35
4257.1	0.66
4260.3	11.69
4263.5	4.17
4266.7	2.99
4269.9	6.25
4273.1	2.1
4276.2	7.16
4279.4	6
4282.6	0
4285.8	0.64
4289	7.72
4292.1	2.32
4295.3	8.28
4298.5	9.93
4301.6	5.86
4304.8	4.99
4307.9	0.79
4311.1	5.85
4314.3	5.46
4317.4	0.41
4320.6	0.48
4323.7	1.78
4326.9	0
4330	0.6
4333.2	2.89
4336.3	2.63
4339.4	0
4342.6	0.14
4345.7	2.61
4348.9	0
4352	1.58
4355.1	0
4358.3	5.2
4361.4	7.47
4364.5	19.41
4367.6	21.34
4370.7	17.07
4373.9	19.02
4377	13.58
4380.1	0
4383.2	0.87
4386.3	4.7
4389.4	9.05
4392.5	29.1
4395.6	38.99
4398.7	46.28
4401.8	49.43
4404.9	47.54
4408	31.25
4411.1	18.32
4414.2	9.25
4417.3	7.2
4420.4	0
4423.5	2.04
4426.6	0.52
4429.7	4.2
4432.7	0.33
4435.8	0
4438.9	0.51
4442	1.39
4445	0
4448.1	0.47
4451.2	2.38
4454.2	5.6
4457.3	6.24
4460.4	0.5
4463.4	11.71
4466.5	5.62
4469.5	3.15
4472.6	11.61
4475.7	9.63
4478.7	7.32
4481.8	6.6
4484.8	2.55
4487.8	0.43
4490.9	7.47
4493.9	5.45
4497	0
4500	0.59
4503	8.55
4506.1	2.45
4509.1	4.11
4512.1	0
4515.2	0
4518.2	0
4521.2	0
4524.2	0
4527.3	0
4530.3	0
4533.3	0
4536.3	0
4539.3	0
4542.3	0
4545.3	0
4548.3	0
4551.3	0
